#scan	iMeasureCycle=1	iMux=0	time=0.034	N=201	LocalTime=03/11/2021 19:06:49
#VGate(V)	IGate(A)	time(s)	VDrain(V)	IDrain(A)	time(s)
-2E-07	5.864E-11	0.200085	0.1000001	-1E-14	0.200085
-0.2000003	-6.5233E-09	0.321646	0.1	-7.4E-13	0.321646
-0.4	-1.3935E-08	0.467402	0.1	-1.04E-12	0.467402
-0.6	-2.30201E-08	0.589781	0.0999999	-1.22E-12	0.589781
-0.8	-3.33908E-08	0.712086	0.1000001	-1.21E-12	0.712086
-1	-4.44376E-08	0.850208	0.1000001	-1.02E-12	0.850208
-1.200001	-5.5839E-08	0.972599	0.1000001	-1.38E-12	0.972599
-1.400001	-6.7284E-08	1.094935	0.1000001	-1.3E-12	1.094935
-1.600001	-7.85438E-08	1.217259	0.1	-1.23E-12	1.217259
-1.800001	-8.95588E-08	1.351407	0.1000001	-1.23E-12	1.351407
-2.000001	-1.008762E-07	1.473805	0.1	-9.8E-13	1.473805
-2.2	-1.12419E-07	1.605021	0.1	-1.55E-12	1.605021
-2.4	-1.24549E-07	1.761182	0.1000002	-1.55E-12	1.761182
-2.6	-1.3699E-07	1.883582	0.0999999	-1.41E-12	1.883582
-2.8	-1.50299E-07	2.005963	0.0999999	-1.45E-12	2.005963
-3	-1.63672E-07	2.128259	0.1000001	-1.44E-12	2.128259
-3.2	-1.77235E-07	2.26369	0.1000002	-1.13E-12	2.26369
-3.4	-1.91062E-07	2.386167	0.1	-1.28E-12	2.386167
-3.6	-2.05191E-07	2.508573	0.1000001	-1.12E-12	2.508573
-3.8	-2.19027E-07	2.630966	0.1	-1.48E-12	2.630966
-4	-2.3224E-07	2.765123	0.1	-1.53E-12	2.765123
-4.2	-2.44581E-07	2.88752	0.0999999	-1.33E-12	2.88752
-4.4	-2.55053E-07	3.009891	0.1	-1.32E-12	3.009891
-4.6	-2.65442E-07	3.13224	0.1000003	-1.54E-12	3.13224
-4.8	-2.74964E-07	3.266204	0.1000001	-1.51E-12	3.266204
-5	-2.84846E-07	3.388588	0.1000001	-1.64E-12	3.388588
-5.2	-2.94595E-07	3.511018	0.1000001	-1.69E-12	3.511018
-5.4	-3.02989E-07	3.633398	0.1000002	-1.66E-12	3.633398
-5.6	-3.11518E-07	3.767051	0.1000003	-1.48E-12	3.767051
-5.8	-3.18893E-07	3.889453	0.1000001	-1.65E-12	3.889453
-6	-3.2628E-07	4.011844	0.1	-1.59E-12	4.011844
-6.2	-3.34642E-07	4.134159	0.1000001	-1.26E-12	4.134159
-6.4	-3.41727E-07	4.267888	0.1	-1.37E-12	4.267888
-6.6	-3.48839E-07	4.390326	0.0999999	-1.64E-12	4.390326
-6.8	-3.55222E-07	4.512742	0.1	-1.54E-12	4.512742
-7	-3.62534E-07	4.635178	0.0999998	-1.66E-12	4.635178
-7.2	-3.66056E-07	4.768979	0.1	-1.3E-12	4.768979
-7.4	-3.68967E-07	4.891384	0.1	-1.44E-12	4.891384
-7.6	-3.75392E-07	5.013783	0.1000002	-1.39E-12	5.013783
-7.8	-3.78428E-07	5.13612	0.0999999	-1.36E-12	5.13612
-8	-3.82884E-07	5.269976	0.1000002	-1.48E-12	5.269976
-8.2	-3.90298E-07	5.392359	0.1	-1.49E-12	5.392359
-8.4	-4.00029E-07	5.514795	0.1	-1.52E-12	5.514795
-8.6	-4.0663E-07	5.63717	0.0999999	-1.39E-12	5.63717
-8.8	-4.09397E-07	5.766774	0.1000001	-1.59E-12	5.766774
-9	-4.11904E-07	5.889177	0.1	-1.37E-12	5.889177
-9.2	-4.15465E-07	6.011555	0.0999999	-1.34E-12	6.011555
-9.4	-4.21834E-07	6.133892	0.0999999	-1.51E-12	6.133892
-9.6	-4.22133E-07	6.266732	0.1000001	-1.3E-12	6.266732
-9.8	-4.22282E-07	6.389167	0.1000002	-1.47E-12	6.389167
-10	-4.29684E-07	6.511545	0.0999999	-1.72E-12	6.511545
-9.8	-4.20629E-07	6.633926	0.1000002	-1.8E-12	6.633926
-9.6	-4.08863E-07	6.772076	0.1	-1.42E-12	6.772076
-9.4	-3.97328E-07	6.894482	0.0999999	-1.42E-12	6.894482
-9.2	-3.88141E-07	7.016836	0.1	-1.27E-12	7.016836
-9	-3.81419E-07	7.139182	0.0999998	-1.51E-12	7.139182
-8.8	-3.67216E-07	7.273654	0.1	-1.5E-12	7.273654
-8.6	-3.61636E-07	7.396045	0.1000003	-1.35E-12	7.396045
-8.4	-3.49196E-07	7.518496	0.1	-1.68E-12	7.518496
-8.2	-3.3842E-07	7.640865	0.0999999	-1.45E-12	7.640865
-8	-3.30686E-07	7.774748	0.1	-1.18E-12	7.774748
-7.8	-3.22381E-07	7.897136	0.1	-1.75E-12	7.897136
-7.6	-3.1228E-07	8.019497	0.1000002	-1.26E-12	8.019497
-7.4	-3.03715E-07	8.141837	0.1000001	-1.49E-12	8.141837
-7.2	-2.96108E-07	8.275744	0.1	-1.3E-12	8.275744
-7	-2.86354E-07	8.398244	0.1	-1.32E-12	8.398244
-6.8	-2.7759E-07	8.520646	0.1000002	-1.46E-12	8.520646
-6.6	-2.67673E-07	8.643036	0.1000001	-1.5E-12	8.643036
-6.4	-2.59131E-07	8.772168	0.1	-1.44E-12	8.772168
-6.2	-2.49611E-07	8.894544	0.1	-1.09E-12	8.894544
-6	-2.40881E-07	9.016899	0.1000001	-1.66E-12	9.016899
-5.8	-2.32962E-07	9.139255	0.1000001	-1.14E-12	9.139255
-5.6	-2.24751E-07	9.272569	0.1000002	-1.57E-12	9.272569
-5.4	-2.15271E-07	9.395021	0.1000001	-1.52E-12	9.395021
-5.2	-2.06208E-07	9.517433	0.1	-1.29E-12	9.517433
-5	-1.9815E-07	9.639797	0.1000001	-1.7E-12	9.639797
-4.8	-1.88457E-07	9.773635	0.1000001	-1.32E-12	9.773635
-4.6	-1.79637E-07	9.896064	0.0999999	-1.42E-12	9.896064
-4.4	-1.71393E-07	10.018419	0.1	-1.63E-12	10.018419
-4.2	-1.61784E-07	10.140749	0.1000002	-1.48E-12	10.140749
-4	-1.53367E-07	10.278816	0.0999999	-1.62E-12	10.278816
-3.8	-1.44261E-07	10.401313	0.1000001	-1.61E-12	10.401313
-3.6	-1.35274E-07	10.523735	0.1000002	-1.59E-12	10.523735
-3.4	-1.2616E-07	10.646115	0.1	-1.55E-12	10.646115
-3.2	-1.17007E-07	10.780582	0.0999999	-1.61E-12	10.780582
-3	-1.07564E-07	10.902989	0.1	-1.28E-12	10.902989
-2.8	-9.8618E-08	11.025383	0.1	-1.69E-12	11.025383
-2.6	-8.9769E-08	11.147731	0.0999999	-1.73E-12	11.147731
-2.40001	-8.04015E-08	11.298795	0.1000001	-1.77E-12	11.298795
-2.20001	-7.14698E-08	11.421183	0.0999999	-1.45E-12	11.421183
-1.999999	-6.27688E-08	11.543677	0.1	-1.38E-12	11.543677
-1.8	-5.42624E-08	11.666056	0.1	-1.47E-12	11.666056
-1.600001	-4.59575E-08	11.788432	0.0999999	-1.6E-12	11.788432
-1.4	-3.7805E-08	11.910834	0.1000002	-1.66E-12	11.910834
-1.200001	-2.99631E-08	12.033256	0.1	-1.39E-12	12.033256
-1.000001	-2.27128E-08	12.155591	0.1000002	-1.44E-12	12.155591
-0.800001	-1.61688E-08	12.283492	0.1	-2.03E-12	12.283492
-0.600001	-1.02129E-08	12.405947	0.1000003	-1.99E-12	12.405947
-0.4	-5.07097E-09	12.543192	0.1	-1.63E-12	12.543192
-0.1999995	-6.0917E-10	12.664385	0.1	-1.52E-12	12.664385
7E-07	3.33521E-09	12.786123	0.1000001	-1.66E-12	12.786123
0.2000004	7.38918E-09	12.937872	0.1000001	-1.4E-12	12.937872
0.399999	1.22993E-08	13.083536	0.1000002	-1.46E-12	13.083536
0.599999	1.81529E-08	13.205878	0.0999999	-1.41E-12	13.205878
0.799999	2.47515E-08	13.328238	0.1000002	-1.58E-12	13.328238
0.999999	3.21976E-08	13.450665	0.1000001	-1.73E-12	13.450665
1.199999	4.06823E-08	13.573001	0.0999998	-1.3E-12	13.573001
1.399998	4.98746E-08	13.695342	0.1	-1.63E-12	13.695342
1.599998	5.96121E-08	13.817707	0.1	-1.38E-12	13.817707
1.799998	6.95814E-08	13.940152	0.0999998	-1.6E-12	13.940152
1.999997	8.02955E-08	14.062526	0.1	-1.76E-12	14.062526
2.19999	9.15762E-08	14.184867	0.1	-1.56E-12	14.184867
2.4	1.03499E-07	14.316143	0.1	-1.59E-12	14.316143
2.6	1.15551E-07	14.438554	0.1000002	-1.73E-12	14.438554
2.8	1.28022E-07	14.560894	0.1000001	-1.63E-12	14.560894
3	1.40592E-07	14.683251	0.1	-1.3E-12	14.683251
3.2	1.53067E-07	14.805613	0.1000001	-1.6E-12	14.805613
3.4	1.65634E-07	14.928024	0.1	-1.59E-12	14.928024
3.6	1.78209E-07	15.05046	0.1	-1.33E-12	15.05046
3.8	1.90994E-07	15.172804	0.1000003	-1.42E-12	15.172804
4	2.04079E-07	15.295184	0.0999999	-1.28E-12	15.295184
4.2	2.16876E-07	15.417577	0.1000001	-1.36E-12	15.417577
4.4	2.29545E-07	15.54	0.1000002	-1.43E-12	15.54
4.6	2.42169E-07	15.662345	0.0999998	-1.62E-12	15.662345
4.8	2.53839E-07	15.791027	0.1	-1.78E-12	15.791027
5	2.65647E-07	15.9134	0.1	-1.93E-12	15.9134
5.2	2.7612E-07	16.035762	0.0999999	-1.84E-12	16.035762
5.4	2.86369E-07	16.158093	0.1	-1.69E-12	16.158093
5.6	2.96889E-07	16.291944	0.1	-1.85E-12	16.291944
5.8	3.07298E-07	16.414409	0.1000001	-1.68E-12	16.414409
6	3.14655E-07	16.536845	0.1	-1.44E-12	16.536845
6.2	3.23181E-07	16.659203	0.1	-1.53E-12	16.659203
6.4	3.29879E-07	16.788482	0.1000002	-1.64E-12	16.788482
6.6	3.37085E-07	16.910884	0.1	-1.21E-12	16.910884
6.8	3.4394E-07	17.033237	0.0999998	-1.46E-12	17.033237
7	3.50288E-07	17.155569	0.1	-1.21E-12	17.155569
7.2	3.55548E-07	17.288941	0.1	-1.5E-12	17.288941
7.4	3.63466E-07	17.411366	0.1000001	-1.66E-12	17.411366
7.6	3.70476E-07	17.533782	0.0999998	-1.43E-12	17.533782
7.8	3.75297E-07	17.656141	0.1000001	-1.38E-12	17.656141
8	3.81847E-07	17.794289	0.1	-1.75E-12	17.794289
8.2	3.87122E-07	17.916707	0.1	-1.65E-12	17.916707
8.4	3.89958E-07	18.039067	0.1000002	-1.66E-12	18.039067
8.6	3.95085E-07	18.161397	0.1	-1.41E-12	18.161397
8.8	3.95509E-07	18.295802	0.1	-1.4E-12	18.295802
9	3.99018E-07	18.418258	0.1	-1.41E-12	18.418258
9.2	4.02147E-07	18.540631	0.0999999	-1.7E-12	18.540631
9.4	4.11736E-07	18.66299	0.1000001	-1.57E-12	18.66299
9.6	4.08881E-07	18.796544	0.1000001	-1.17E-12	18.796544
9.8	4.13256E-07	18.918969	0.1000001	-1.51E-12	18.918969
10	4.15871E-07	19.041347	0.1000001	-1.31E-12	19.041347
9.8	4.05965E-07	19.16372	0.1	-1.69E-12	19.16372
9.6	3.97117E-07	19.297642	0.1	-1.8E-12	19.297642
9.4	3.87867E-07	19.420053	0.1000002	-1.57E-12	19.420053
9.2	3.80872E-07	19.542426	0.1	-1.57E-12	19.542426
9	3.72021E-07	19.664809	0.0999999	-1.35E-12	19.664809
8.8	3.62901E-07	19.798837	0.0999999	-1.18E-12	19.798837
8.6	3.54751E-07	19.921229	0.1000002	-1.53E-12	19.921229
8.4	3.49728E-07	20.043608	0.1	-1.64E-12	20.043608
8.2	3.3836E-07	20.165917	0.1000001	-1.51E-12	20.165917
8	3.30041E-07	20.29968	0.1000001	-1.41E-12	20.29968
7.8	3.20516E-07	20.422144	0.1	-1.55E-12	20.422144
7.6	3.09819E-07	20.544525	0.1000002	-1.43E-12	20.544525
7.4	3.01887E-07	20.666883	0.1	-1.55E-12	20.666883
7.2	2.92922E-07	20.800644	0.1000002	-1.55E-12	20.800644
7	2.84663E-07	20.92303	0.1000001	-1.65E-12	20.92303
6.8	2.75291E-07	21.04541	0.1000001	-1.28E-12	21.04541
6.6	2.66103E-07	21.167744	0.1000001	-1.46E-12	21.167744
6.4	2.57608E-07	21.301565	0.0999999	-1.75E-12	21.301565
6.2	2.50527E-07	21.423961	0.1000001	-1.35E-12	21.423961
6	2.40377E-07	21.546343	0.1	-1.65E-12	21.546343
5.8	2.31864E-07	21.668707	0.1	-1.72E-12	21.668707
5.6	2.21711E-07	21.802576	0.1000001	-1.35E-12	21.802576
5.4	2.13911E-07	21.924934	0.1000002	-1.5E-12	21.924934
5.2	2.05208E-07	22.047412	0.1000001	-1.2E-12	22.047412
5	1.96939E-07	22.16972	0.1	-1.48E-12	22.16972
4.8	1.88188E-07	22.299421	0.1000002	-1.61E-12	22.299421
4.6	1.78871E-07	22.421885	0.1000001	-1.6E-12	22.421885
4.4	1.70636E-07	22.544257	0.0999999	-1.42E-12	22.544257
4.2	1.61497E-07	22.666606	0.1000002	-1.27E-12	22.666606
4	1.52641E-07	22.803822	0.1	-1.66E-12	22.803822
3.8	1.43519E-07	22.926235	0.0999999	-1.52E-12	22.926235
3.6	1.35278E-07	23.048607	0.1000003	-1.18E-12	23.048607
3.4	1.26194E-07	23.170952	0.1000001	-1.7E-12	23.170952
3.2	1.17028E-07	23.305616	0.1000001	-1.33E-12	23.305616
3	1.08456E-07	23.428049	0.0999997	-1.47E-12	23.428049
2.8	1.00372E-07	23.550448	0.0999999	-1.48E-12	23.550448
2.6	9.0871E-08	23.672797	0.1000001	-1.45E-12	23.672797
2.39999	8.13365E-08	23.819406	0.1000001	-1.65E-12	23.819406
2.2	7.2146E-08	23.941766	0.0999999	-1.43E-12	23.941766
1.999999	6.30553E-08	24.064227	0.1	-1.22E-12	24.064227
1.8	5.43338E-08	24.197964	0.0999999	-1.48E-12	24.197964
1.6	4.59E-08	24.320344	0.1000002	-1.43E-12	24.320344
1.4	3.7854E-08	24.442736	0.1	-1.51E-12	24.442736
1.2	3.0144E-08	24.565158	0.1000001	-1.15E-12	24.565158
1	2.29209E-08	24.687539	0.1	-1.57E-12	24.687539
0.8	1.63732E-08	24.809911	0.0999998	-1.29E-12	24.809911
0.6	1.05677E-08	24.93231	0.0999999	-1.24E-12	24.93231
0.399999	5.59068E-09	25.069596	0.1000001	-1.5E-12	25.069596
0.1999995	1.21966E-09	25.190761	0.0999999	-1.48E-12	25.190761
-4E-07	-2.67202E-09	25.311988	0.1	-1.34E-12	25.311988
