#scan	iMeasureCycle=1	iMux=0	time=0.033	N=201	LocalTime=03/11/2021 19:04:36
#VGate(V)	IGate(A)	time(s)	VDrain(V)	IDrain(A)	time(s)
-2E-07	6.91E-11	0.199185	0.1000001	-1E-13	0.199185
-0.2000002	-1.82393E-09	0.320778	0.0999999	-1.9E-13	0.320778
-0.4	-3.68647E-09	0.441992	0.1000002	-8.9E-13	0.441992
-0.6	-5.56692E-09	0.563172	0.1	-9.6E-13	0.563172
-0.8	-7.47925E-09	0.684321	0.1	-1.09E-12	0.684321
-1.000001	-9.4337E-09	0.829984	0.1000001	-8.6E-13	0.829984
-1.2	-1.14576E-08	0.952397	0.1	-7.7E-13	0.952397
-1.4	-1.3546E-08	1.074718	0.0999999	-1.13E-12	1.074718
-1.6	-1.58243E-08	1.197114	0.0999999	-9.2E-13	1.197114
-1.8	-1.84066E-08	1.319481	0.1000001	-1.45E-12	1.319481
-2	-2.11714E-08	1.441877	0.0999999	-9.8E-13	1.441877
-2.2	-2.40306E-08	1.564346	0.1	-9.7E-13	1.564346
-2.4	-2.72596E-08	1.686685	0.1000002	-1.12E-12	1.686685
-2.6	-3.0204E-08	1.809041	0.1	-8.5E-13	1.809041
-2.8	-3.31442E-08	1.931422	0.1000001	-6.3E-13	1.931422
-3	-3.64334E-08	2.05375	0.1000003	-9.1E-13	2.05375
-3.2	-3.97141E-08	2.176143	0.1	-1.12E-12	2.176143
-3.4	-4.3055E-08	2.298587	0.0999999	-1.34E-12	2.298587
-3.6	-4.59837E-08	2.420982	0.1000001	-1.21E-12	2.420982
-3.8	-4.85768E-08	2.543367	0.1000002	-1.07E-12	2.543367
-4	-5.09928E-08	2.665702	0.0999999	-7.1E-13	2.665702
-4.2	-5.30496E-08	2.788091	0.1	-8.6E-13	2.788091
-4.4	-5.52324E-08	2.910492	0.1000001	-1.04E-12	2.910492
-4.6	-5.67529E-08	3.032815	0.0999999	-1.3E-12	3.032815
-4.8	-5.84443E-08	3.155211	0.0999999	-1.17E-12	3.155211
-5	-6.00562E-08	3.277579	0.1	-1.08E-12	3.277579
-5.2	-6.13837E-08	3.399971	0.1	-1.26E-12	3.399971
-5.4	-6.27159E-08	3.522394	0.1000001	-1.39E-12	3.522394
-5.6	-6.39535E-08	3.644718	0.1	-1.34E-12	3.644718
-5.8	-6.54798E-08	3.767101	0.1000001	-1.17E-12	3.767101
-6	-6.6466E-08	3.889538	0.1000001	-1.28E-12	3.889538
-6.2	-6.76007E-08	4.011877	0.1	-1.35E-12	4.011877
-6.4	-6.8365E-08	4.134251	0.0999997	-1.18E-12	4.134251
-6.6	-6.93619E-08	4.267763	0.1	-1.07E-12	4.267763
-6.8	-6.9928E-08	4.390178	0.1	-1.28E-12	4.390178
-7	-7.06598E-08	4.51255	0.1	-1.23E-12	4.51255
-7.2	-7.15458E-08	4.634903	0.1	-9.4E-13	4.634903
-7.4	-7.20461E-08	4.768744	0.0999999	-1.07E-12	4.768744
-7.6	-7.30821E-08	4.891222	0.1	-1.02E-12	4.891222
-7.8	-7.34769E-08	5.013546	0.1000001	-1.1E-12	5.013546
-8	-7.44515E-08	5.135923	0.1000001	-1.12E-12	5.135923
-8.2	-7.47076E-08	5.269609	0.1000001	-9.7E-13	5.269609
-8.4	-7.49353E-08	5.392014	0.0999999	-1.24E-12	5.392014
-8.6	-7.48827E-08	5.514411	0.1000001	-1.01E-12	5.514411
-8.8	-7.49828E-08	5.636758	0.1	-1.38E-12	5.636758
-9	-7.50913E-08	5.770597	0.1000001	-1.2E-12	5.770597
-9.2	-7.55347E-08	5.893045	0.0999999	-8.3E-13	5.893045
-9.4	-7.60704E-08	6.015373	0.1000001	-1.49E-12	6.015373
-9.6	-7.64161E-08	6.137748	0.1	-9.6E-13	6.137748
-9.8	-7.66567E-08	6.267274	0.1	-1.3E-12	6.267274
-10	-7.76865E-08	6.389732	0.0999998	-1.07E-12	6.389732
-9.80001	-7.39964E-08	6.512112	0.0999999	-9.3E-13	6.512112
-9.60001	-7.10139E-08	6.634452	0.1	-9.6E-13	6.634452
-9.40001	-6.79745E-08	6.763289	0.1000002	-1.19E-12	6.763289
-9.20001	-6.53739E-08	6.88578	0.1000001	-9.7E-13	6.88578
-9.00001	-6.26879E-08	7.008098	0.1	-1.21E-12	7.008098
-8.80001	-6.02745E-08	7.130478	0.0999999	-1.02E-12	7.130478
-8.60001	-5.77604E-08	7.272984	0.1000001	-1.37E-12	7.272984
-8.40001	-5.53713E-08	7.395459	0.1000001	-1.35E-12	7.395459
-8.20001	-5.321E-08	7.517913	0.0999999	-1.01E-12	7.517913
-8.00001	-5.12882E-08	7.640245	0.0999999	-1.08E-12	7.640245
-7.80001	-4.90598E-08	7.77037	0.1000001	-1.04E-12	7.77037
-7.60001	-4.71131E-08	7.892834	0.1000001	-6.6E-13	7.892834
-7.40001	-4.52347E-08	8.015163	0.1000001	-1.1E-12	8.015163
-7.20001	-4.33734E-08	8.137562	0.1000002	-9.9E-13	8.137562
-7.00001	-4.15123E-08	8.275077	0.1000001	-9.9E-13	8.275077
-6.80001	-3.97561E-08	8.397549	0.0999999	-1.22E-12	8.397549
-6.60001	-3.80843E-08	8.519925	0.1000002	-1.24E-12	8.519925
-6.40001	-3.64436E-08	8.642253	0.0999998	-1.11E-12	8.642253
-6.20001	-3.47238E-08	8.776658	0.1000001	-9.5E-13	8.776658
-6.00001	-3.305E-08	8.899073	0.0999999	-1.12E-12	8.899073
-5.80001	-3.14378E-08	9.021401	0.0999999	-9E-13	9.021401
-5.60001	-2.9929E-08	9.143785	0.0999999	-1.09E-12	9.143785
-5.40001	-2.84401E-08	9.27759	0.1000002	-6.7E-13	9.27759
-5.20001	-2.69799E-08	9.399969	0.1000002	-1.07E-12	9.399969
-5.00001	-2.55878E-08	9.522376	0.0999999	-8.2E-13	9.522376
-4.80001	-2.41205E-08	9.644724	0.1000001	-9.5E-13	9.644724
-4.60001	-2.28308E-08	9.778549	0.1000003	-9.3E-13	9.778549
-4.40001	-2.14446E-08	9.900961	0.1000002	-1.04E-12	9.900961
-4.20001	-2.01015E-08	10.023283	0.1	-1.03E-12	10.023283
-4.00001	-1.88679E-08	10.145673	0.0999999	-1.07E-12	10.145673
-3.80001	-1.76413E-08	10.279593	0.1	-1.14E-12	10.279593
-3.60001	-1.64395E-08	10.40199	0.1000002	-1.08E-12	10.40199
-3.40001	-1.52315E-08	10.524359	0.0999999	-1.32E-12	10.524359
-3.20001	-1.40597E-08	10.646694	0.0999999	-1.28E-12	10.646694
-3.00001	-1.29171E-08	10.775919	0.1000001	-1.03E-12	10.775919
-2.80001	-1.1813E-08	10.898355	0.1	-1.12E-12	10.898355
-2.60001	-1.07377E-08	11.020699	0.1000002	-1.49E-12	11.020699
-2.40001	-9.6689E-09	11.143073	0.1000001	-1.19E-12	11.143073
-2.2	-8.67241E-09	11.295864	0.1000001	-9.5E-13	11.295864
-2	-7.68344E-09	11.417089	0.1	-9.6E-13	11.417089
-1.800001	-6.7193E-09	11.538346	0.1000002	-1.03E-12	11.538346
-1.600001	-5.77545E-09	11.659516	0.1	-9.8E-13	11.659516
-1.400001	-4.86236E-09	11.780984	0.0999998	-8.3E-13	11.780984
-1.200001	-3.96835E-09	11.902253	0.1	-1.27E-12	11.902253
-1.000001	-3.10222E-09	12.023433	0.1	-7.9E-13	12.023433
-0.800001	-2.24708E-09	12.144641	0.0999998	-8.2E-13	12.144641
-0.600001	-1.39676E-09	12.268621	0.1	-1.15E-12	12.268621
-0.400001	-5.1916E-10	12.389919	0.1000001	-9.5E-13	12.389919
-0.1999999	3.6729E-10	12.511124	0.0999998	-1.21E-12	12.511124
-1E-07	1.27293E-09	12.632289	0.1	-1.19E-12	12.632289
0.2000001	2.21452E-09	12.769509	0.0999998	-9.7E-13	12.769509
0.399999	3.24646E-09	12.890799	0.1	-8.2E-13	12.890799
0.599999	4.3695E-09	13.011975	0.1	-1.56E-12	13.011975
0.799999	5.61413E-09	13.133191	0.1000003	-1.06E-12	13.133191
0.999999	7.0156E-09	13.271459	0.1000001	-1.12E-12	13.271459
1.199999	8.52871E-09	13.392749	0.1	-1.29E-12	13.392749
1.399999	1.02496E-08	13.53845	0.1000002	-1.08E-12	13.53845
1.599999	1.21007E-08	13.660769	0.0999999	-1.05E-12	13.660769
1.799998	1.41556E-08	13.786089	0.1	-1.29E-12	13.786089
1.999999	1.6311E-08	13.908545	0.0999999	-7.9E-13	13.908545
2.19999	1.84562E-08	14.03087	0.1	-1.21E-12	14.03087
2.39999	2.06431E-08	14.153234	0.1000002	-1.35E-12	14.153234
2.59999	2.29144E-08	14.287506	0.1000001	-1.32E-12	14.287506
2.79999	2.51291E-08	14.409929	0.1000001	-9.8E-13	14.409929
2.99999	2.74171E-08	14.532297	0.1	-1.28E-12	14.532297
3.19999	2.98623E-08	14.654602	0.1000001	-1.23E-12	14.654602
3.39999	3.23547E-08	14.78829	0.1000002	-1.14E-12	14.78829
3.59999	3.48896E-08	14.910692	0.1000001	-1.04E-12	14.910692
3.79999	3.74292E-08	15.033092	0.1	-1.3E-12	15.033092
3.99999	4.01304E-08	15.155448	0.1	-1.17E-12	15.155448
4.19999	4.3063E-08	15.289234	0.0999999	-1.05E-12	15.289234
4.39999	4.56712E-08	15.411664	0.1	-1.09E-12	15.411664
4.59999	4.84115E-08	15.534022	0.1	-9.6E-13	15.534022
4.79999	5.11088E-08	15.656362	0.1000001	-1.13E-12	15.656362
4.99999	5.40805E-08	15.79024	0.1	-1.25E-12	15.79024
5.19999	5.64877E-08	15.912677	0.0999998	-1.28E-12	15.912677
5.39999	5.89769E-08	16.035005	0.1	-1.22E-12	16.035005
5.59999	6.16681E-08	16.157373	0.0999999	-9.6E-13	16.157373
5.79999	6.46978E-08	16.291143	0.1000001	-9.3E-13	16.291143
5.99999	6.71022E-08	16.413581	0.1	-8.7E-13	16.413581
6.19999	6.9678E-08	16.535936	0.1000001	-8.5E-13	16.535936
6.39999	7.16307E-08	16.658274	0.1000001	-7.4E-13	16.658274
6.59999	7.35563E-08	16.792385	0.0999999	-1.15E-12	16.792385
6.79999	7.56228E-08	16.914818	0.0999999	-8.7E-13	16.914818
6.99999	7.82678E-08	17.037149	0.1	-1.04E-12	17.037149
7.19999	8.04831E-08	17.159489	0.0999999	-1.17E-12	17.159489
7.39999	8.20981E-08	17.293351	0.1000001	-1.01E-12	17.293351
7.59999	8.38776E-08	17.41579	0.1	-8.2E-13	17.41579
7.79999	8.55669E-08	17.538167	0.1	-6.8E-13	17.538167
7.99999	8.75593E-08	17.660488	0.1000001	-1.41E-12	17.660488
8.2	8.92882E-08	17.794294	0.1000001	-8.2E-13	17.794294
8.39999	9.05696E-08	17.916724	0.0999998	-1.34E-12	17.916724
8.59999	9.17092E-08	18.039117	0.0999999	-8E-13	18.039117
8.79999	9.26081E-08	18.161466	0.1000001	-9.6E-13	18.161466
9	9.31454E-08	18.291008	0.1000001	-1.11E-12	18.291008
9.19999	9.40608E-08	18.413523	0.1	-1.27E-12	18.413523
9.39999	9.39282E-08	18.535904	0.1000002	-6.7E-13	18.535904
9.6	9.43955E-08	18.658291	0.1000001	-1.31E-12	18.658291
9.79999	9.47755E-08	18.791502	0.0999999	-7.1E-13	18.791502
9.99999	9.56314E-08	18.913983	0.0999999	-1.03E-12	18.913983
9.80001	9.09808E-08	19.036336	0.1000001	-1.04E-12	19.036336
9.60001	8.70128E-08	19.1587	0.1	-1.02E-12	19.1587
9.4	8.29413E-08	19.296985	0.1000001	-1.38E-12	19.296985
9.2	7.97701E-08	19.41941	0.1	-1.06E-12	19.41941
9	7.65137E-08	19.541772	0.0999999	-1.33E-12	19.541772
8.8	7.35879E-08	19.664098	0.1	-1.2E-12	19.664098
8.6	7.07174E-08	19.794086	0.0999999	-1.01E-12	19.794086
8.4	6.76899E-08	19.916516	0.1000001	-1.14E-12	19.916516
8.2	6.49641E-08	20.038856	0.1000001	-1.18E-12	20.038856
8	6.23127E-08	20.161212	0.1	-1.45E-12	20.161212
7.8	5.99942E-08	20.294592	0.1	-1.19E-12	20.294592
7.6	5.7783E-08	20.417088	0.0999999	-9.5E-13	20.417088
7.4	5.55823E-08	20.539451	0.1000001	-1.04E-12	20.539451
7.2	5.33195E-08	20.661775	0.1000001	-1.19E-12	20.661775
7	5.14332E-08	20.799773	0.1000002	-1.22E-12	20.799773
6.8	4.9394E-08	20.92221	0.1000001	-7.5E-13	20.92221
6.6	4.74808E-08	21.044554	0.1000001	-8.8E-13	21.044554
6.4	4.55472E-08	21.166933	0.1	-9.7E-13	21.166933
6.20001	4.3639E-08	21.318567	0.1000002	-9.9E-13	21.318567
6	4.17531E-08	21.441011	0.1000001	-1.09E-12	21.441011
5.8	3.99833E-08	21.563381	0.1	-1.51E-12	21.563381
5.6	3.82599E-08	21.685721	0.1000002	-1.13E-12	21.685721
5.4	3.64805E-08	21.808094	0.1000001	-1.09E-12	21.808094
5.2	3.4826E-08	21.930561	0.1000001	-9.9E-13	21.930561
5	3.31652E-08	22.052891	0.1000001	-9.4E-13	22.052891
4.8	3.15405E-08	22.175269	0.1	-1.01E-12	22.175269
4.6	2.99657E-08	22.303775	0.1	-9.3E-13	22.303775
4.4	2.8425E-08	22.426227	0.1000001	-9E-13	22.426227
4.2	2.68314E-08	22.548581	0.1	-1.07E-12	22.548581
4	2.52132E-08	22.670919	0.1	-9.8E-13	22.670919
3.8	2.37751E-08	22.800426	0.1000001	-8E-13	22.800426
3.60001	2.22598E-08	22.922882	0.1	-1.03E-12	22.922882
3.4	2.07879E-08	23.045189	0.0999999	-1.18E-12	23.045189
3.2	1.93417E-08	23.167573	0.1	-1.12E-12	23.167573
3.00001	1.7959E-08	23.300684	0.1	-1.01E-12	23.300684
2.8	1.65759E-08	23.423073	0.1000001	-1.07E-12	23.423073
2.6	1.52221E-08	23.54546	0.1000002	-1.11E-12	23.54546
2.4	1.38911E-08	23.667808	0.1	-8.9E-13	23.667808
2.2	1.25918E-08	23.801549	0.0999999	-9.6E-13	23.801549
1.999999	1.12942E-08	23.924003	0.1	-1.22E-12	23.924003
1.8	1.00266E-08	24.046328	0.1	-1.17E-12	24.046328
1.599999	8.80788E-09	24.18362	0.1000001	-9.7E-13	24.18362
1.4	7.56648E-09	24.307023	0.1000001	-1.01E-12	24.307023
1.2	6.33157E-09	24.428317	0.0999999	-1.02E-12	24.428317
1	5.09406E-09	24.549514	0.0999999	-1.17E-12	24.549514
0.8	3.84237E-09	24.670681	0.1	-1.2E-12	24.670681
0.6	2.56253E-09	24.793893	0.1	-1.21E-12	24.793893
0.4	1.23716E-09	24.915149	0.1	-1.29E-12	24.915149
0.1999998	-1.3779E-10	25.036328	0.1	-1.27E-12	25.036328
0	-1.58129E-09	25.15755	0.1000001	-9.5E-13	25.15755
